time,x,y,z,phi,theta,psi,x_velocity,y_velocity,z_velocity,phi_velocity,theta_velocity,psi_velocity,rotor_speed1,rotor_speed2,rotor_speed3,rotor_speed4
0.06,-7.72559221022e-08,-0.0407759061879,10.0656435544,4.36051763694,6.28279040416,0.0,7.5103860359e-05,-2.14986941661,1.5069104779,47.2874382676,-0.0249144950373,0.0,114.752017427,106.550011239,125.27765948,1988.53546927
0.12000000000000001,7.75662197594e-05,-0.186676303918,10.1171158642,4.04009351462,6.28095533939,0.0,0.00339071059366,-1.58620435622,1.20508402606,62.2230389459,-0.0454301129565,0.0,107.750603076,100.57165117,102.108487192,1999.4746806
0.18,0.000579274042678,-0.337836513948,10.1736405171,2.14190167497,6.27810192425,0.0,0.0148263025008,-2.21695685139,1.71614735124,63.8390461449,-0.0521885865508,0.0,102.959453425,100.529600489,104.359235386,1999.67901798
0.23999999999999996,0.00208463695786,-0.442297911504,10.1913183613,5.97851295922,6.27468399683,0.0,0.0371180742687,-2.74648075004,-0.703332598914,63.9507700957,-0.068816564843,0.0,106.613944091,100.757201539,109.396429259,1999.2508754
0.3,0.00531528024598,-0.586195250877,10.2018009719,3.53150763714,6.27000638392,0.0,0.072821913707,-1.1824703501,-0.22208476847,63.9072871847,-0.111183847252,0.0,115.071345039,100.740407365,103.830784528,1997.18673856
0.36000000000000004,0.0112550154262,-0.718613942161,10.1301887274,1.08588070616,6.26316794582,0.0,0.128790141715,-3.08288441223,-0.626885333615,63.9751394904,-0.120227819435,0.0,103.983481269,100.70409922,103.996463237,1999.60683969
0.4200000000000001,0.0210649229436,-0.837380216913,10.0645883739,5.05939513357,6.2611490344,0.0,0.198034759869,-2.04376828779,-2.55208681232,63.1465789054,-0.366794658265,0.0,168.306418871,101.591835544,110.489252283,1971.62409173
0.48000000000000015,0.0357537158024,-1.00156518697,9.95208585431,2.65202416892,6.23854086343,0.0,0.303068654852,-1.89396215542,-1.31486811236,63.6974448971,-0.43067471714,0.0,122.282449215,100.762724688,102.752052104,1992.22700794
0.5400000000000001,0.0593040269648,-1.12297516361,9.78268547949,0.20782752837,6.21233584494,0.0,0.495871956369,-3.24240802321,-3.23950841608,63.9116022936,-0.45299570462,0.0,109.304195363,100.678305768,105.817439559,1998.11636138
0.6000000000000002,0.0934603137681,-1.30949572751,9.6335709067,5.22468067105,0.00334499023414,0.0,0.609341550478,-3.3395730447,-2.87410247768,56.0224896837,-1.29547720009,0.0,268.522448801,100.765151011,106.195902765,1719.63269577
0.6600000000000003,0.131126469635,-1.54807170889,9.49250287379,4.67665639896,6.20868722098,0.0,0.686133032414,-3.90797733099,-2.98679177976,62.2253478053,-1.41044955124,0.0,144.255710366,103.455613024,108.664401674,1965.45307967
0.7200000000000003,0.181382362625,-1.84291939141,9.33235278184,2.12605614613,6.12570360343,0.0,1.02774636898,-4.59753574315,-1.85216278285,62.1488898215,-1.5872418065,0.0,158.845696105,101.221288349,105.787629348,1942.37364467
0.7800000000000004,0.258648937046,-2.10836960352,9.17524351022,0.756876099351,6.07023417091,0.0,1.57146482461,-5.18067865352,-2.41069860375,59.7939443019,-2.14003184533,0.0,232.061121701,102.446295805,111.901268381,1861.49725611
0.8400000000000004,0.365849417452,-2.40692639685,9.0203167283,4.4095502121,6.07731543438,0.0,1.99927352259,-4.75540766349,-3.42961962964,50.3171324257,-3.10441416618,0.0,294.199410308,101.498600931,109.412098153,1520.28209826
0.9000000000000005,0.50113120173,-2.7350113261,8.81316946522,1.82580092176,6.02381635953,0.0,2.52017408267,-5.31991641139,-2.93120394486,52.0760015509,-4.05994179466,0.0,302.575009281,102.049379489,105.577059403,1638.89397889
0.9600000000000005,0.67201195604,-3.01730053241,8.58335699217,5.0261256904,5.86477494227,0.0,3.22136631372,-4.94299799458,-4.91929858657,51.397768348,-4.83601404245,0.0,292.242201242,102.940806081,108.62758047,1603.85812409
1.0200000000000005,0.888955325489,-3.34730553233,8.26505459195,0.278463673091,5.71250429043,0.0,4.0449931629,-6.01384848554,-5.61797265997,46.4773528047,-5.80881508098,0.0,327.364206557,100.921566399,102.384178554,1417.31464532
1.0800000000000005,1.14346916121,-3.69892853984,7.92688398342,5.697685608,5.54469924346,0.0,4.46544248361,-5.59991685897,-5.85927038338,34.2998403425,-6.91300803451,0.0,357.595840842,100.116274854,101.440443147,890.801303148
1.1400000000000006,1.4450589785,-4.05260531728,7.56817909491,1.09135682908,5.15518870836,0.0,5.64548419539,-6.11718935474,-6.13193229896,39.906739729,-7.36924624016,0.0,303.593850828,101.058541185,102.911047976,1315.47389708
1.2000000000000006,1.80433644206,-4.41077010687,7.18602078092,1.56970837088,4.78057913754,0.0,6.33882818306,-5.94756482285,-6.6314464714,32.2232121227,-8.07049186998,0.0,342.763834942,99.5414562278,100.932969714,875.978553497
1.2600000000000007,2.2083456525,-4.76527896369,6.77303840556,3.82086774552,4.30185478594,0.0,7.13600874234,-5.88316608374,-7.12340168122,30.8193645885,-8.32521434756,0.0,305.540979765,99.7276622324,100.927521181,940.248595827
1.3200000000000007,2.67723815235,-5.11422743053,6.33823286742,1.41024955737,3.80237921614,0.0,8.38641696884,-5.74762606996,-7.63527962776,37.5414126417,-8.45286904352,0.0,295.860308268,100.018016869,101.276659757,1265.96990138
1.3800000000000008,3.20153443773,-5.48110918015,5.87472739505,4.00171231173,3.2976793128,0.0,9.06772192109,-6.2608392633,-7.5173202321,38.8281304318,-8.37896367274,0.0,271.497813157,99.5906079343,100.930571682,1231.66983071
1.4400000000000008,3.75406020139,-5.84318372397,5.40441874097,3.73777044882,2.79800716225,0.0,9.18396933782,-6.54015834041,-8.84189925222,49.6079671051,-8.29255664758,0.0,267.515235949,99.7553073039,101.059682717,1629.55973575
1.5000000000000009,4.27933791513,-6.20247739164,4.86226165926,1.23689550187,2.30279047455,0.0,8.16329924837,-5.7431815143,-10.0142319727,51.5339838198,-8.22161597331,0.0,267.120841639,99.7200368836,100.584075783,1623.03602292
1.560000000000001,4.74382930871,-6.56672075965,4.24639769567,6.04412306314,1.86008732171,0.0,7.3163283847,-6.18496078658,-10.362093818,39.7845373145,-8.83791684541,0.0,352.303933071,99.2322880032,100.102732187,1120.78609812
1.620000000000001,5.13325585288,-6.93812428883,3.59913746511,4.29767545958,1.33856673555,0.0,5.64390967803,-6.1979724628,-11.0528564415,43.0919679516,-8.66369918107,0.0,268.64820929,99.095532938,99.9391525413,1380.77097652
1.680000000000001,5.45500599747,-7.30989543553,2.91740602061,3.03921860187,0.823864301679,0.0,5.11331699708,-6.28613185827,-11.6694682472,30.8224638771,-8.5407554646,0.0,270.674172094,99.1602608999,99.9794450709,728.762985604
1.740000000000001,5.75578870888,-7.68618744512,2.20038620134,3.58590212744,0.32376806179,0.0,4.99066130847,-6.31583623639,-12.2330626231,22.743078557,-8.3247561574,0.0,252.786253858,99.1921329776,99.7541551643,413.473164127
1.8000000000000012,6.053280432,-8.06760083338,1.44911985958,0.947554936719,6.10682028535,0.0,4.93223154698,-6.42544676107,-12.8908972306,19.0305214891,-8.39487209939,0.0,287.894816137,99.2767218186,99.9449239082,429.021748043
1.8600000000000012,6.3461067717,-8.45496493712,0.659498319989,4.47682918761,5.6044914765,0.0,4.79077108334,-6.38433716312,-13.3085541148,15.2158828533,-8.34750709501,0.0,273.53225494,99.2955652025,99.7601514607,188.528074118
1.9200000000000013,6.63351434612,-8.83773284844,0.0,5.43520802551,5.16616597496,0.0,4.83300585365,-6.44691447526,-14.1190120137,14.6284909563,-7.79575693176,0.0,185.641430189,99.3660134744,99.4390005584,431.647407372
